"# Channel 1"
"# Trace 4"
Frequency, Formatted Data, Formatted Data
+5.00000000000E+004, -2.65170577473E+003, +0.00000000000E+000
+5.19950000000E+004, -2.95238638242E+003, +0.00000000000E+000
+5.39900000000E+004, -2.93480491913E+003, +0.00000000000E+000
+5.59850000000E+004, -2.81650795994E+003, +0.00000000000E+000
+5.79800000000E+004, -2.72662236603E+003, +0.00000000000E+000
+5.99750000000E+004, -2.61862022159E+003, +0.00000000000E+000
+6.19700000000E+004, -2.53702937467E+003, +0.00000000000E+000
+6.39650000000E+004, -2.44794781236E+003, +0.00000000000E+000
+6.59600000000E+004, -2.37231636780E+003, +0.00000000000E+000
+6.79550000000E+004, -2.29111934223E+003, +0.00000000000E+000
+6.99500000000E+004, -2.22448115494E+003, +0.00000000000E+000
+7.19450000000E+004, -2.14565169516E+003, +0.00000000000E+000
+7.39400000000E+004, -2.09976442976E+003, +0.00000000000E+000
+7.59350000000E+004, -2.03825603893E+003, +0.00000000000E+000
+7.79300000000E+004, -1.98470531815E+003, +0.00000000000E+000
+7.99250000000E+004, -1.93862291793E+003, +0.00000000000E+000
+8.19200000000E+004, -1.88491580320E+003, +0.00000000000E+000
+8.39150000000E+004, -1.83798891730E+003, +0.00000000000E+000
+8.59100000000E+004, -1.79291831134E+003, +0.00000000000E+000
+8.79050000000E+004, -1.75376547430E+003, +0.00000000000E+000
+8.99000000000E+004, -1.71402809262E+003, +0.00000000000E+000
+9.18950000000E+004, -1.67333277593E+003, +0.00000000000E+000
+9.38900000000E+004, -1.63714778213E+003, +0.00000000000E+000
+9.58850000000E+004, -1.60289054641E+003, +0.00000000000E+000
+9.78800000000E+004, -1.56595426371E+003, +0.00000000000E+000
+9.98750000000E+004, -1.53607814093E+003, +0.00000000000E+000
+1.01870000000E+005, -1.50791576358E+003, +0.00000000000E+000
+1.03865000000E+005, -1.47495374867E+003, +0.00000000000E+000
+1.05860000000E+005, -1.44467919606E+003, +0.00000000000E+000
+1.07855000000E+005, -1.42039893573E+003, +0.00000000000E+000
+1.09850000000E+005, -1.39583475336E+003, +0.00000000000E+000
+1.11845000000E+005, -1.36892088298E+003, +0.00000000000E+000
+1.13840000000E+005, -1.34202412091E+003, +0.00000000000E+000
+1.15835000000E+005, -1.32353563432E+003, +0.00000000000E+000
+1.17830000000E+005, -1.29935159092E+003, +0.00000000000E+000
+1.19825000000E+005, -1.27174421150E+003, +0.00000000000E+000
+1.21820000000E+005, -1.25606614698E+003, +0.00000000000E+000
+1.23815000000E+005, -1.23890348093E+003, +0.00000000000E+000
+1.25810000000E+005, -1.21703416380E+003, +0.00000000000E+000
+1.27805000000E+005, -1.19762977120E+003, +0.00000000000E+000
+1.29800000000E+005, -1.17828800285E+003, +0.00000000000E+000
+1.31795000000E+005, -1.15727184934E+003, +0.00000000000E+000
+1.33790000000E+005, -1.14298476317E+003, +0.00000000000E+000
+1.35785000000E+005, -1.12634017876E+003, +0.00000000000E+000
+1.37780000000E+005, -1.10677917121E+003, +0.00000000000E+000
+1.39775000000E+005, -1.09303336609E+003, +0.00000000000E+000
+1.41770000000E+005, -1.07994006691E+003, +0.00000000000E+000
+1.43765000000E+005, -1.06449407447E+003, +0.00000000000E+000
+1.45760000000E+005, -1.05097727334E+003, +0.00000000000E+000
+1.47755000000E+005, -1.03487906680E+003, +0.00000000000E+000
+1.49750000000E+005, -1.02086951775E+003, +0.00000000000E+000
+1.51745000000E+005, -1.00719331999E+003, +0.00000000000E+000
+1.53740000000E+005, -9.95719902357E+002, +0.00000000000E+000
+1.55735000000E+005, -9.83053434739E+002, +0.00000000000E+000
+1.57730000000E+005, -9.71567682511E+002, +0.00000000000E+000
+1.59725000000E+005, -9.60875217388E+002, +0.00000000000E+000
+1.61720000000E+005, -9.48574574086E+002, +0.00000000000E+000
+1.63715000000E+005, -9.35697566217E+002, +0.00000000000E+000
+1.65710000000E+005, -9.24042341926E+002, +0.00000000000E+000
+1.67705000000E+005, -9.13323837375E+002, +0.00000000000E+000
+1.69700000000E+005, -9.03803922041E+002, +0.00000000000E+000
+1.71695000000E+005, -8.94843978075E+002, +0.00000000000E+000
+1.73690000000E+005, -8.83749438261E+002, +0.00000000000E+000
+1.75685000000E+005, -8.73505362646E+002, +0.00000000000E+000
+1.77680000000E+005, -8.65749226199E+002, +0.00000000000E+000
+1.79675000000E+005, -8.53945355178E+002, +0.00000000000E+000
+1.81670000000E+005, -8.44114801980E+002, +0.00000000000E+000
+1.83665000000E+005, -8.35537673924E+002, +0.00000000000E+000
+1.85660000000E+005, -8.25695491635E+002, +0.00000000000E+000
+1.87655000000E+005, -8.18459737492E+002, +0.00000000000E+000
+1.89650000000E+005, -8.09807055590E+002, +0.00000000000E+000
+1.91645000000E+005, -8.01870011811E+002, +0.00000000000E+000
+1.93640000000E+005, -7.92453783615E+002, +0.00000000000E+000
+1.95635000000E+005, -7.85063163466E+002, +0.00000000000E+000
+1.97630000000E+005, -7.77691216441E+002, +0.00000000000E+000
+1.99625000000E+005, -7.70250056630E+002, +0.00000000000E+000
+2.01620000000E+005, -7.60618169729E+002, +0.00000000000E+000
+2.03615000000E+005, -7.54739504881E+002, +0.00000000000E+000
+2.05610000000E+005, -7.46541143154E+002, +0.00000000000E+000
+2.07605000000E+005, -7.40233370587E+002, +0.00000000000E+000
+2.09600000000E+005, -7.34063067431E+002, +0.00000000000E+000
+2.11595000000E+005, -7.26001567434E+002, +0.00000000000E+000
+2.13590000000E+005, -7.19839427523E+002, +0.00000000000E+000
+2.15585000000E+005, -7.12822658381E+002, +0.00000000000E+000
+2.17580000000E+005, -7.05850409114E+002, +0.00000000000E+000
+2.19575000000E+005, -6.99876869003E+002, +0.00000000000E+000
+2.21570000000E+005, -6.93239123966E+002, +0.00000000000E+000
+2.23565000000E+005, -6.88195079837E+002, +0.00000000000E+000
+2.25560000000E+005, -6.80356169444E+002, +0.00000000000E+000
+2.27555000000E+005, -6.75425044225E+002, +0.00000000000E+000
+2.29550000000E+005, -6.70819421644E+002, +0.00000000000E+000
+2.31545000000E+005, -6.64712167857E+002, +0.00000000000E+000
+2.33540000000E+005, -6.58587337006E+002, +0.00000000000E+000
+2.35535000000E+005, -6.53029728628E+002, +0.00000000000E+000
+2.37530000000E+005, -6.46734378938E+002, +0.00000000000E+000
+2.39525000000E+005, -6.42223110230E+002, +0.00000000000E+000
+2.41520000000E+005, -6.37379554659E+002, +0.00000000000E+000
+2.43515000000E+005, -6.31578408713E+002, +0.00000000000E+000
+2.45510000000E+005, -6.27364895807E+002, +0.00000000000E+000
+2.47505000000E+005, -6.21307916169E+002, +0.00000000000E+000
+2.49500000000E+005, -6.16594444774E+002, +0.00000000000E+000
+2.51495000000E+005, -6.11491338396E+002, +0.00000000000E+000
+2.53490000000E+005, -6.07117254180E+002, +0.00000000000E+000
+2.55485000000E+005, -6.02076001947E+002, +0.00000000000E+000
+2.57480000000E+005, -5.98059392012E+002, +0.00000000000E+000
+2.59475000000E+005, -5.93263527199E+002, +0.00000000000E+000
+2.61470000000E+005, -5.88464430643E+002, +0.00000000000E+000
+2.63465000000E+005, -5.84107846392E+002, +0.00000000000E+000
+2.65460000000E+005, -5.79103898626E+002, +0.00000000000E+000
+2.67455000000E+005, -5.75162080221E+002, +0.00000000000E+000
+2.69450000000E+005, -5.70971271909E+002, +0.00000000000E+000
+2.71445000000E+005, -5.66774869717E+002, +0.00000000000E+000
+2.73440000000E+005, -5.63142985270E+002, +0.00000000000E+000
+2.75435000000E+005, -5.58717048218E+002, +0.00000000000E+000
+2.77430000000E+005, -5.54596990045E+002, +0.00000000000E+000
+2.79425000000E+005, -5.50778639449E+002, +0.00000000000E+000
+2.81420000000E+005, -5.47317709424E+002, +0.00000000000E+000
+2.83415000000E+005, -5.43054113621E+002, +0.00000000000E+000
+2.85410000000E+005, -5.39226766749E+002, +0.00000000000E+000
+2.87405000000E+005, -5.36035467214E+002, +0.00000000000E+000
+2.89400000000E+005, -5.31638643565E+002, +0.00000000000E+000
+2.91395000000E+005, -5.28407147451E+002, +0.00000000000E+000
+2.93390000000E+005, -5.24837646004E+002, +0.00000000000E+000
+2.95385000000E+005, -5.21208061652E+002, +0.00000000000E+000
+2.97380000000E+005, -5.17892965780E+002, +0.00000000000E+000
+2.99375000000E+005, -5.13784095289E+002, +0.00000000000E+000
+3.01370000000E+005, -5.10568929425E+002, +0.00000000000E+000
+3.03365000000E+005, -5.07777756772E+002, +0.00000000000E+000
+3.05360000000E+005, -5.03867701865E+002, +0.00000000000E+000
+3.07355000000E+005, -5.01063044648E+002, +0.00000000000E+000
+3.09350000000E+005, -4.97967052074E+002, +0.00000000000E+000
+3.11345000000E+005, -4.94486677502E+002, +0.00000000000E+000
+3.13340000000E+005, -4.91388374103E+002, +0.00000000000E+000
+3.15335000000E+005, -4.88586070527E+002, +0.00000000000E+000
+3.17330000000E+005, -4.85611640104E+002, +0.00000000000E+000
+3.19325000000E+005, -4.82349530216E+002, +0.00000000000E+000
+3.21320000000E+005, -4.78990065670E+002, +0.00000000000E+000
+3.23315000000E+005, -4.76338491834E+002, +0.00000000000E+000
+3.25310000000E+005, -4.73755396866E+002, +0.00000000000E+000
+3.27305000000E+005, -4.71105008792E+002, +0.00000000000E+000
+3.29300000000E+005, -4.68043479734E+002, +0.00000000000E+000
+3.31295000000E+005, -4.65218253365E+002, +0.00000000000E+000
+3.33290000000E+005, -4.61899523988E+002, +0.00000000000E+000
+3.35285000000E+005, -4.59369396175E+002, +0.00000000000E+000
+3.37280000000E+005, -4.56848178766E+002, +0.00000000000E+000
+3.39275000000E+005, -4.53996209163E+002, +0.00000000000E+000
+3.41270000000E+005, -4.51968278356E+002, +0.00000000000E+000
+3.43265000000E+005, -4.48822058366E+002, +0.00000000000E+000
+3.45260000000E+005, -4.46117781135E+002, +0.00000000000E+000
+3.47255000000E+005, -4.43651498668E+002, +0.00000000000E+000
+3.49250000000E+005, -4.41124210998E+002, +0.00000000000E+000
+3.51245000000E+005, -4.38819861292E+002, +0.00000000000E+000
+3.53240000000E+005, -4.35966486250E+002, +0.00000000000E+000
+3.55235000000E+005, -4.33987311065E+002, +0.00000000000E+000
+3.57230000000E+005, -4.31481317762E+002, +0.00000000000E+000
+3.59225000000E+005, -4.28970686204E+002, +0.00000000000E+000
+3.61220000000E+005, -4.26585416215E+002, +0.00000000000E+000
+3.63215000000E+005, -4.24290846778E+002, +0.00000000000E+000
+3.65210000000E+005, -4.21953259141E+002, +0.00000000000E+000
+3.67205000000E+005, -4.19947625076E+002, +0.00000000000E+000
+3.69200000000E+005, -4.17404709711E+002, +0.00000000000E+000
+3.71195000000E+005, -4.14864921673E+002, +0.00000000000E+000
+3.73190000000E+005, -4.12625145336E+002, +0.00000000000E+000
+3.75185000000E+005, -4.10846055419E+002, +0.00000000000E+000
+3.77180000000E+005, -4.08756979867E+002, +0.00000000000E+000
+3.79175000000E+005, -4.06337031883E+002, +0.00000000000E+000
+3.81170000000E+005, -4.04239634466E+002, +0.00000000000E+000
+3.83165000000E+005, -4.02475308203E+002, +0.00000000000E+000
+3.85160000000E+005, -4.00046356639E+002, +0.00000000000E+000
+3.87155000000E+005, -3.98217878025E+002, +0.00000000000E+000
+3.89150000000E+005, -3.95941216077E+002, +0.00000000000E+000
+3.91145000000E+005, -3.93934982958E+002, +0.00000000000E+000
+3.93140000000E+005, -3.91980201681E+002, +0.00000000000E+000
+3.95135000000E+005, -3.89726034321E+002, +0.00000000000E+000
+3.97130000000E+005, -3.88096328537E+002, +0.00000000000E+000
+3.99125000000E+005, -3.86100217089E+002, +0.00000000000E+000
+4.01120000000E+005, -3.83819814840E+002, +0.00000000000E+000
+4.03115000000E+005, -3.82079573475E+002, +0.00000000000E+000
+4.05110000000E+005, -3.80226877794E+002, +0.00000000000E+000
+4.07105000000E+005, -3.78373085570E+002, +0.00000000000E+000
+4.09100000000E+005, -3.76734059703E+002, +0.00000000000E+000
+4.11095000000E+005, -3.74717376577E+002, +0.00000000000E+000
+4.13090000000E+005, -3.73133104163E+002, +0.00000000000E+000
+4.15085000000E+005, -3.71011790037E+002, +0.00000000000E+000
+4.17080000000E+005, -3.69197591370E+002, +0.00000000000E+000
+4.19075000000E+005, -3.67575001447E+002, +0.00000000000E+000
+4.21070000000E+005, -3.65881561838E+002, +0.00000000000E+000
+4.23065000000E+005, -3.64135030680E+002, +0.00000000000E+000
+4.25060000000E+005, -3.62509449163E+002, +0.00000000000E+000
+4.27055000000E+005, -3.60731876196E+002, +0.00000000000E+000
+4.29050000000E+005, -3.59078123806E+002, +0.00000000000E+000
+4.31045000000E+005, -3.57543951803E+002, +0.00000000000E+000
+4.33040000000E+005, -3.55651668695E+002, +0.00000000000E+000
+4.35035000000E+005, -3.54125969518E+002, +0.00000000000E+000
+4.37030000000E+005, -3.52594749614E+002, +0.00000000000E+000
+4.39025000000E+005, -3.51118642660E+002, +0.00000000000E+000
+4.41020000000E+005, -3.49467312411E+002, +0.00000000000E+000
+4.43015000000E+005, -3.47816597966E+002, +0.00000000000E+000
+4.45010000000E+005, -3.46232764176E+002, +0.00000000000E+000
+4.47005000000E+005, -3.44769500844E+002, +0.00000000000E+000
+4.49000000000E+005, -3.43152502718E+002, +0.00000000000E+000
+4.50995000000E+005, -3.41530897054E+002, +0.00000000000E+000
+4.52990000000E+005, -3.40148333919E+002, +0.00000000000E+000
+4.54985000000E+005, -3.38795679370E+002, +0.00000000000E+000
+4.56980000000E+005, -3.37192174283E+002, +0.00000000000E+000
+4.58975000000E+005, -3.35656733839E+002, +0.00000000000E+000
+4.60970000000E+005, -3.34315494757E+002, +0.00000000000E+000
+4.62965000000E+005, -3.32866888996E+002, +0.00000000000E+000
+4.64960000000E+005, -3.31533694062E+002, +0.00000000000E+000
+4.66955000000E+005, -3.30261711005E+002, +0.00000000000E+000
+4.68950000000E+005, -3.28607257580E+002, +0.00000000000E+000
+4.70945000000E+005, -3.27477030760E+002, +0.00000000000E+000
+4.72940000000E+005, -3.25685473230E+002, +0.00000000000E+000
+4.74935000000E+005, -3.24433473366E+002, +0.00000000000E+000
+4.76930000000E+005, -3.23191215089E+002, +0.00000000000E+000
+4.78925000000E+005, -3.21787331981E+002, +0.00000000000E+000
+4.80920000000E+005, -3.20434709376E+002, +0.00000000000E+000
+4.82915000000E+005, -3.19064892050E+002, +0.00000000000E+000
+4.84910000000E+005, -3.17559381975E+002, +0.00000000000E+000
+4.86905000000E+005, -3.16653674156E+002, +0.00000000000E+000
+4.88900000000E+005, -3.15368504617E+002, +0.00000000000E+000
+4.90895000000E+005, -3.13881286894E+002, +0.00000000000E+000
+4.92890000000E+005, -3.12769023124E+002, +0.00000000000E+000
+4.94885000000E+005, -3.11462705087E+002, +0.00000000000E+000
+4.96880000000E+005, -3.10037626231E+002, +0.00000000000E+000
+4.98875000000E+005, -3.08921502845E+002, +0.00000000000E+000
+5.00870000000E+005, -3.07594409380E+002, +0.00000000000E+000
+5.02865000000E+005, -3.06340771769E+002, +0.00000000000E+000
+5.04860000000E+005, -3.05054369870E+002, +0.00000000000E+000
+5.06855000000E+005, -3.04194354552E+002, +0.00000000000E+000
+5.08850000000E+005, -3.02900226832E+002, +0.00000000000E+000
+5.10845000000E+005, -3.01536176465E+002, +0.00000000000E+000
+5.12840000000E+005, -3.00475668411E+002, +0.00000000000E+000
+5.14835000000E+005, -2.99458867411E+002, +0.00000000000E+000
+5.16830000000E+005, -2.98049155009E+002, +0.00000000000E+000
+5.18825000000E+005, -2.96935280775E+002, +0.00000000000E+000
+5.20820000000E+005, -2.95889774996E+002, +0.00000000000E+000
+5.22815000000E+005, -2.94905468120E+002, +0.00000000000E+000
+5.24810000000E+005, -2.93692257489E+002, +0.00000000000E+000
+5.26805000000E+005, -2.92591040176E+002, +0.00000000000E+000
+5.28800000000E+005, -2.91593897123E+002, +0.00000000000E+000
+5.30795000000E+005, -2.90278088651E+002, +0.00000000000E+000
+5.32790000000E+005, -2.89129941626E+002, +0.00000000000E+000
+5.34785000000E+005, -2.88192981961E+002, +0.00000000000E+000
+5.36780000000E+005, -2.87020269471E+002, +0.00000000000E+000
+5.38775000000E+005, -2.86098173758E+002, +0.00000000000E+000
+5.40770000000E+005, -2.84974837892E+002, +0.00000000000E+000
+5.42765000000E+005, -2.83764808520E+002, +0.00000000000E+000
+5.44760000000E+005, -2.82822241401E+002, +0.00000000000E+000
+5.46755000000E+005, -2.81848106587E+002, +0.00000000000E+000
+5.48750000000E+005, -2.80755609622E+002, +0.00000000000E+000
+5.50745000000E+005, -2.79785157968E+002, +0.00000000000E+000
+5.52740000000E+005, -2.78904770900E+002, +0.00000000000E+000
+5.54735000000E+005, -2.77953003963E+002, +0.00000000000E+000
+5.56730000000E+005, -2.76892981201E+002, +0.00000000000E+000
+5.58725000000E+005, -2.75741113124E+002, +0.00000000000E+000
+5.60720000000E+005, -2.74881704585E+002, +0.00000000000E+000
+5.62715000000E+005, -2.73898639735E+002, +0.00000000000E+000
+5.64710000000E+005, -2.72891458002E+002, +0.00000000000E+000
+5.66705000000E+005, -2.72025185104E+002, +0.00000000000E+000
+5.68700000000E+005, -2.70951925900E+002, +0.00000000000E+000
+5.70695000000E+005, -2.70019466575E+002, +0.00000000000E+000
+5.72690000000E+005, -2.69138033661E+002, +0.00000000000E+000
+5.74685000000E+005, -2.68140974268E+002, +0.00000000000E+000
+5.76680000000E+005, -2.67236890094E+002, +0.00000000000E+000
+5.78675000000E+005, -2.66260199469E+002, +0.00000000000E+000
+5.80670000000E+005, -2.65375433013E+002, +0.00000000000E+000
+5.82665000000E+005, -2.64562727088E+002, +0.00000000000E+000
+5.84660000000E+005, -2.63614967661E+002, +0.00000000000E+000
+5.86655000000E+005, -2.62834706084E+002, +0.00000000000E+000
+5.88650000000E+005, -2.61776187787E+002, +0.00000000000E+000
+5.90645000000E+005, -2.61061442915E+002, +0.00000000000E+000
+5.92640000000E+005, -2.60115498951E+002, +0.00000000000E+000
+5.94635000000E+005, -2.59186496232E+002, +0.00000000000E+000
+5.96630000000E+005, -2.58345747868E+002, +0.00000000000E+000
+5.98625000000E+005, -2.57531780824E+002, +0.00000000000E+000
+6.00620000000E+005, -2.56527478055E+002, +0.00000000000E+000
+6.02615000000E+005, -2.55801583593E+002, +0.00000000000E+000
+6.04610000000E+005, -2.54936653234E+002, +0.00000000000E+000
+6.06605000000E+005, -2.54077127663E+002, +0.00000000000E+000
+6.08600000000E+005, -2.53108444883E+002, +0.00000000000E+000
+6.10595000000E+005, -2.52504922515E+002, +0.00000000000E+000
+6.12590000000E+005, -2.51451613958E+002, +0.00000000000E+000
+6.14585000000E+005, -2.50726595259E+002, +0.00000000000E+000
+6.16580000000E+005, -2.49933405408E+002, +0.00000000000E+000
+6.18575000000E+005, -2.49120419744E+002, +0.00000000000E+000
+6.20570000000E+005, -2.48386969911E+002, +0.00000000000E+000
+6.22565000000E+005, -2.47534512284E+002, +0.00000000000E+000
+6.24560000000E+005, -2.46717543940E+002, +0.00000000000E+000
+6.26555000000E+005, -2.45992611313E+002, +0.00000000000E+000
+6.28550000000E+005, -2.45245504083E+002, +0.00000000000E+000
+6.30545000000E+005, -2.44361825101E+002, +0.00000000000E+000
+6.32540000000E+005, -2.43723589138E+002, +0.00000000000E+000
+6.34535000000E+005, -2.42760137623E+002, +0.00000000000E+000
+6.36530000000E+005, -2.42141558148E+002, +0.00000000000E+000
+6.38525000000E+005, -2.41359625692E+002, +0.00000000000E+000
+6.40520000000E+005, -2.40549956360E+002, +0.00000000000E+000
+6.42515000000E+005, -2.39885396149E+002, +0.00000000000E+000
+6.44510000000E+005, -2.39089028775E+002, +0.00000000000E+000
+6.46505000000E+005, -2.38405555318E+002, +0.00000000000E+000
+6.48500000000E+005, -2.37505723276E+002, +0.00000000000E+000
+6.50495000000E+005, -2.37057653938E+002, +0.00000000000E+000
+6.52490000000E+005, -2.36087142011E+002, +0.00000000000E+000
+6.54485000000E+005, -2.35305404536E+002, +0.00000000000E+000
+6.56480000000E+005, -2.34767142811E+002, +0.00000000000E+000
+6.58475000000E+005, -2.34054968809E+002, +0.00000000000E+000
+6.60470000000E+005, -2.33345032005E+002, +0.00000000000E+000
+6.62465000000E+005, -2.32736663097E+002, +0.00000000000E+000
+6.64460000000E+005, -2.31926907719E+002, +0.00000000000E+000
+6.66455000000E+005, -2.31308040660E+002, +0.00000000000E+000
+6.68450000000E+005, -2.30589829551E+002, +0.00000000000E+000
+6.70445000000E+005, -2.29888171631E+002, +0.00000000000E+000
+6.72440000000E+005, -2.29276178943E+002, +0.00000000000E+000
+6.74435000000E+005, -2.28574062190E+002, +0.00000000000E+000
+6.76430000000E+005, -2.27811947712E+002, +0.00000000000E+000
+6.78425000000E+005, -2.27237518643E+002, +0.00000000000E+000
+6.80420000000E+005, -2.26564695021E+002, +0.00000000000E+000
+6.82415000000E+005, -2.25911724944E+002, +0.00000000000E+000
+6.84410000000E+005, -2.25226430377E+002, +0.00000000000E+000
+6.86405000000E+005, -2.24622740595E+002, +0.00000000000E+000
+6.88400000000E+005, -2.23914422418E+002, +0.00000000000E+000
