Time (s),V_MR
0.0,4.7182497024
5e-10,4.6869997056
1e-09,4.6244997119999995
1.5000000000000002e-09,4.5307497216
2e-09,4.4369997312
2.5e-09,4.4057497344
3.0000000000000004e-09,4.3432497408
3.5000000000000003e-09,4.2182497536
4e-09,4.15574976
4.500000000000001e-09,3.9994997760000004
5e-09,3.9369997824
5.5000000000000004e-09,3.843249792
6.000000000000001e-09,3.7494998016
6.5e-09,3.6557498111999998
7.000000000000001e-09,3.5619998207999997
7.500000000000001e-09,3.4057498368
8e-09,3.3119998464
8.5e-09,3.1869998592
9.000000000000001e-09,3.0619998720000003
9.5e-09,2.9994998784
1e-08,2.905749888
1.0500000000000001e-08,2.7807499008
1.1000000000000001e-08,2.6244999168
1.15e-08,2.4994999296
1.2000000000000002e-08,2.4057499392
1.2500000000000001e-08,2.280749952
1.3e-08,2.1869999616
1.35e-08,2.0619999744
1.4000000000000001e-08,1.9369999872
1.45e-08,1.8744999936
1.5000000000000002e-08,1.7495000064000001
1.55e-08,1.655750016
1.6e-08,1.499500032
1.6500000000000002e-08,1.4057500416000002
1.7e-08,1.2807500544000001
1.75e-08,1.2182500608
1.8000000000000002e-08,1.1245000704
1.85e-08,1.0620000768
1.9e-08,0.9057500928000001
1.9500000000000003e-08,0.7807501056000001
2e-08,0.718250112
2.05e-08,0.6870001152
2.1000000000000003e-08,0.6245001216000001
2.15e-08,0.5307501312
2.2000000000000002e-08,0.43700014080000016
2.2500000000000003e-08,0.3745001472
2.3e-08,0.3120001536000001
2.3500000000000002e-08,0.28075015680000015
2.4000000000000003e-08,0.18700016640000006
2.45e-08,0.1557501696000001
2.5000000000000002e-08,0.09325017600000018
2.55e-08,0.030750182400000048
2.6e-08,-0.0004998143999999094
2.6500000000000002e-08,-0.03174981119999987
2.7e-08,-0.06299980799999982
2.75e-08,-0.09424980479999978
2.8000000000000003e-08,-0.12549980159999996
2.85e-08,-0.09424980479999978
2.9e-08,-0.09424980479999978
2.9500000000000003e-08,-0.09424980479999978
3.0000000000000004e-08,-0.12549980159999996
3.05e-08,-0.15674979839999992
3.1e-08,-0.09424980479999978
3.1500000000000004e-08,-0.12549980159999996
3.2e-08,-0.09424980479999978
3.25e-08,-0.09424980479999978
3.3000000000000004e-08,-0.03174981119999987
3.35e-08,-0.03174981119999987
3.4e-08,0.030750182400000048
3.4500000000000005e-08,0.06200017920000023
3.5e-08,0.09325017600000018
3.55e-08,0.1557501696000001
3.6000000000000005e-08,0.2182501632
3.65e-08,0.3120001536000001
3.7e-08,0.34325015040000006
3.7500000000000005e-08,0.4057501440000002
3.8e-08,0.4682501376000001
3.85e-08,0.562000128
3.9000000000000005e-08,0.6245001216000001
3.95e-08,0.718250112
4e-08,0.8120001024000001
4.0500000000000005e-08,0.9370000896000001
4.1e-08,0.9995000832000001
4.15e-08,1.0620000768
4.2000000000000006e-08,1.1245000704
4.2500000000000003e-08,1.2182500608
4.3e-08,1.3745000448
4.3500000000000006e-08,1.5307500288
4.4000000000000004e-08,1.6245000192
4.45e-08,1.7182500096
4.5000000000000006e-08,1.7807500032
4.5500000000000004e-08,1.8744999936
4.6e-08,2.0307499776
4.6500000000000006e-08,2.1557499648
4.7000000000000004e-08,2.280749952
4.75e-08,2.3432499456
4.8000000000000006e-08,2.4057499392
4.8500000000000004e-08,2.5619999232
4.9e-08,2.7182499072
4.95e-08,2.8432498944
5.0000000000000004e-08,2.9369998848
5.05e-08,2.9369998848
5.1e-08,3.0307498751999997
5.1500000000000005e-08,3.1557498624
5.2e-08,3.3432498431999997
5.25e-08,3.4994998272
5.3000000000000005e-08,3.5932498176000003
5.35e-08,3.5932498176000003
5.4e-08,3.5932498176000003
5.4500000000000005e-08,3.7494998016
5.5e-08,3.9057497856000003
5.55e-08,4.0307497728
5.6000000000000005e-08,4.0932497664
5.65e-08,4.15574976
5.7e-08,4.15574976
5.7500000000000005e-08,4.2494997504
5.8e-08,4.3744997376
5.85e-08,4.468249728
5.9000000000000006e-08,4.4994997248
5.9500000000000003e-08,4.5307497216
6.000000000000001e-08,4.5932497152
6.05e-08,4.6557497088
6.1e-08,4.780749696
6.15e-08,4.780749696
6.2e-08,4.7494996992
6.250000000000001e-08,4.7494996992
6.300000000000001e-08,4.8119996928
6.35e-08,4.8744996864
6.4e-08,4.9057496832
6.45e-08,4.93699968
6.5e-08,4.9057496832
6.55e-08,4.8744996864
6.600000000000001e-08,4.8744996864
6.65e-08,4.93699968
6.7e-08,4.93699968
6.75e-08,4.9057496832
6.8e-08,4.8744996864
6.85e-08,4.8119996928
6.900000000000001e-08,4.8119996928
6.950000000000001e-08,4.8432496896
7e-08,4.780749696
7.05e-08,4.6869997056
7.1e-08,4.5932497152
7.15e-08,4.5307497216
7.200000000000001e-08,4.5619997184
7.250000000000001e-08,4.5619997184
7.3e-08,4.468249728
7.35e-08,4.3744997376
7.4e-08,4.2182497536
7.45e-08,4.1869997568
7.500000000000001e-08,4.15574976
7.550000000000001e-08,4.1244997632
7.6e-08,3.9994997760000004
7.65e-08,3.8744997887999997
7.7e-08,3.7494998016
7.75e-08,3.686999808
7.800000000000001e-08,3.6244998144
7.850000000000001e-08,3.530749824
7.9e-08,3.4369998336
7.95e-08,3.2807498496000003
8e-08,3.1869998592
8.05e-08,3.1244998656
8.100000000000001e-08,3.0307498751999997
8.150000000000001e-08,2.8744998912
8.2e-08,2.749499904
8.25e-08,2.6244999168
8.3e-08,2.5619999232
8.35e-08,2.4682499328
8.400000000000001e-08,2.3744999424
8.450000000000001e-08,2.2494999552
8.500000000000001e-08,2.1244999680000003
8.55e-08,1.9994999808
8.6e-08,1.9057499904000001
8.65e-08,1.812
8.700000000000001e-08,1.7495000064000001
8.750000000000001e-08,1.6245000192
8.800000000000001e-08,1.4682500352
8.85e-08,1.4057500416000002
8.9e-08,1.343250048
8.95e-08,1.2807500544000001
9.000000000000001e-08,1.1557500672
9.050000000000001e-08,0.9995000832000001
9.100000000000001e-08,0.9370000896000001
9.15e-08,0.8432500992
9.2e-08,0.8120001024000001
9.25e-08,0.718250112
9.300000000000001e-08,0.6870001152
9.350000000000001e-08,0.5932501248000002
9.400000000000001e-08,0.4995001344000001
9.45e-08,0.4057501440000002
9.5e-08,0.3745001472
9.55e-08,0.34325015040000006
9.600000000000001e-08,0.2495001600000002
9.650000000000001e-08,0.28075015680000015
9.700000000000001e-08,0.2182501632
9.75e-08,0.1557501696000001
9.8e-08,0.09325017600000018
9.85e-08,0.06200017920000023
9.9e-08,0.06200017920000023
9.950000000000001e-08,-0.0004998143999999094
1.0000000000000001e-07,-0.0004998143999999094
1.005e-07,-0.0004998143999999094
1.01e-07,0.030750182400000048
1.015e-07,-0.0004998143999999094
1.02e-07,-0.0004998143999999094
1.0250000000000001e-07,-0.0004998143999999094
1.0300000000000001e-07,0.030750182400000048
1.0350000000000001e-07,0.030750182400000048
1.04e-07,0.030750182400000048
1.045e-07,0.06200017920000023
1.05e-07,0.06200017920000023
1.0550000000000001e-07,0.09325017600000018
1.0600000000000001e-07,0.1557501696000001
1.0650000000000001e-07,0.2182501632
1.07e-07,0.28075015680000015
1.075e-07,0.3120001536000001
1.08e-07,0.3120001536000001
1.0850000000000001e-07,0.34325015040000006
1.0900000000000001e-07,0.43700014080000016
1.0950000000000001e-07,0.5307501312
1.1e-07,0.6557501184000001
1.105e-07,0.7495001088000002
1.11e-07,0.8120001024000001
1.1150000000000001e-07,0.8120001024000001
1.1200000000000001e-07,0.9370000896000001
1.1250000000000001e-07,1.0620000768
1.13e-07,1.1245000704
1.135e-07,1.2182500608
1.14e-07,1.3120000512
1.1450000000000001e-07,1.4370000384000001
1.1500000000000001e-07,1.5620000256000002
1.1550000000000001e-07,1.6870000128
1.16e-07,1.7182500096
1.165e-07,1.812
1.17e-07,1.9369999872
1.1750000000000001e-07,2.0932499712
1.1800000000000001e-07,2.2494999552
1.1850000000000001e-07,2.3432499456
1.1900000000000001e-07,2.4994999296
1.195e-07,2.5307499264
1.2000000000000002e-07,2.59324992
1.205e-07,2.749499904
1.21e-07,2.8744998912
1.215e-07,3.0307498751999997
1.22e-07,3.1244998656
1.2250000000000002e-07,3.218249856
1.23e-07,3.3119998464
1.2350000000000001e-07,3.4369998336
1.24e-07,3.5619998207999997
1.245e-07,3.6244998144
1.2500000000000002e-07,3.7182498048
1.255e-07,3.8119997952
1.2600000000000002e-07,3.9994997760000004
1.265e-07,4.0932497664
1.27e-07,4.1869997568
1.275e-07,4.2182497536
1.28e-07,4.2494997504
1.2850000000000002e-07,4.3432497408
1.29e-07,4.468249728
1.2950000000000001e-07,4.6244997119999995
1.3e-07,4.6557497088
1.305e-07,4.6869997056
1.31e-07,4.6869997056
1.315e-07,4.7182497024
1.3200000000000002e-07,4.8119996928
1.325e-07,4.8744996864
1.33e-07,4.93699968
1.335e-07,4.9994996736
1.34e-07,4.9994996736
1.3450000000000002e-07,4.9994996736
1.35e-07,5.0307496704
1.3550000000000002e-07,5.0307496704
1.36e-07,5.0307496704
1.365e-07,5.093249664
1.37e-07,5.093249664
1.375e-07,5.1557496576
1.3800000000000002e-07,5.093249664
1.385e-07,5.093249664
1.3900000000000001e-07,4.9994996736
1.395e-07,4.9682496768
1.4e-07,4.93699968
1.4050000000000002e-07,4.9682496768
1.41e-07,4.9682496768
1.4150000000000002e-07,4.93699968
1.42e-07,4.8119996928
1.425e-07,4.7494996992
1.43e-07,4.7182497024
1.435e-07,4.6557497088
1.4400000000000002e-07,4.5619997184
1.445e-07,4.5619997184
1.4500000000000001e-07,4.468249728
1.455e-07,4.3744997376
1.46e-07,4.2494997504
1.4650000000000002e-07,4.1869997568
1.47e-07,4.0932497664
1.4750000000000002e-07,3.9994997760000004
1.48e-07,3.9369997824
1.485e-07,3.8119997952
1.49e-07,3.7182498048
1.495e-07,3.6244998144
1.5000000000000002e-07,3.530749824
1.505e-07,3.4057498368
1.5100000000000002e-07,3.2807498496000003
1.515e-07,3.1557498624
1.52e-07,3.0619998720000003
1.5250000000000002e-07,2.9682498816000003
1.53e-07,2.8744998912
1.5350000000000002e-07,2.749499904
1.54e-07,2.5619999232
1.5450000000000001e-07,2.4369999360000003
1.55e-07,2.3744999424
1.555e-07,2.2494999552
1.5600000000000002e-07,2.1557499648
1.565e-07,2.0307499776
1.5700000000000002e-07,1.9057499904000001
1.575e-07,1.812
1.58e-07,1.7495000064000001
1.5850000000000002e-07,1.5932500224000001
1.59e-07,1.499500032
1.5950000000000002e-07,1.3120000512
1.6e-07,1.2182500608
1.6050000000000001e-07,1.2182500608
1.61e-07,1.1557500672
1.615e-07,0.9995000832000001
1.6200000000000002e-07,0.8432500992
1.625e-07,0.718250112
1.6300000000000002e-07,0.6870001152
1.635e-07,0.6557501184000001
1.64e-07,0.5932501248000002
1.645e-07,0.4995001344000001
1.65e-07,0.43700014080000016
1.6550000000000002e-07,0.3120001536000001
1.66e-07,0.28075015680000015
1.6650000000000002e-07,0.2495001600000002
1.67e-07,0.18700016640000006
1.675e-07,0.12450017280000014
1.6800000000000002e-07,0.06200017920000023
1.685e-07,0.06200017920000023
1.6900000000000002e-07,0.030750182400000048
1.695e-07,-0.03174981119999987
1.7000000000000001e-07,-0.06299980799999982
1.705e-07,-0.12549980159999996
1.71e-07,-0.12549980159999996
1.7150000000000002e-07,-0.12549980159999996
1.72e-07,-0.12549980159999996
1.7250000000000002e-07,-0.12549980159999996
1.73e-07,-0.15674979839999992
1.735e-07,-0.12549980159999996
1.7400000000000002e-07,-0.12549980159999996
1.745e-07,-0.09424980479999978
1.7500000000000002e-07,-0.09424980479999978
1.755e-07,-0.09424980479999978
1.7600000000000001e-07,-0.06299980799999982
1.765e-07,-0.03174981119999987
1.77e-07,0.06200017920000023
1.7750000000000002e-07,0.06200017920000023
1.78e-07,0.12450017280000014
1.7850000000000002e-07,0.12450017280000014
1.79e-07,0.2495001600000002
1.795e-07,0.28075015680000015
1.8000000000000002e-07,0.3745001472
1.805e-07,0.43700014080000016
1.8100000000000002e-07,0.4995001344000001
1.815e-07,0.562000128
1.8200000000000002e-07,0.6557501184000001
1.825e-07,0.7495001088000002
1.83e-07,0.8745000960000001
1.8350000000000002e-07,0.9370000896000001
1.84e-07,0.9995000832000001
1.8450000000000002e-07,1.0932500736000001
1.85e-07,1.1557500672
1.8550000000000001e-07,1.2495000576000002
1.8600000000000002e-07,1.3745000448
1.865e-07,1.499500032
1.8700000000000002e-07,1.655750016
1.875e-07,1.7495000064000001
1.8800000000000002e-07,1.812
1.885e-07,1.9057499904000001
1.89e-07,2.0307499776
1.8950000000000002e-07,2.1557499648
1.9e-07,2.280749952
1.9050000000000002e-07,2.3432499456
1.91e-07,2.4369999360000003
1.9150000000000001e-07,2.5619999232
1.9200000000000003e-07,2.7182499072
1.925e-07,2.8744998912
1.9300000000000002e-07,2.9682498816000003
1.935e-07,2.9682498816000003
1.9400000000000002e-07,3.0619998720000003
1.945e-07,3.1869998592
1.95e-07,3.37449984
1.9550000000000002e-07,3.4994998272
1.96e-07,3.5619998207999997
1.9650000000000002e-07,3.5619998207999997
1.97e-07,3.6557498111999998
1.9750000000000001e-07,3.7807497984
1.98e-07,3.9994997760000004
1.985e-07,4.0932497664
1.9900000000000002e-07,4.1244997632
1.995e-07,4.1244997632
2.0000000000000002e-07,4.15574976
2.005e-07,4.2807497472
2.01e-07,4.4057497344
2.0150000000000002e-07,4.468249728
2.02e-07,4.468249728
2.0250000000000002e-07,4.5307497216
2.03e-07,4.5619997184
2.0350000000000002e-07,4.6557497088
2.04e-07,4.780749696
2.045e-07,4.8119996928
2.0500000000000002e-07,4.780749696
2.055e-07,4.780749696
2.0600000000000002e-07,4.8119996928
2.065e-07,4.93699968
2.0700000000000001e-07,4.9057496832
2.0750000000000003e-07,4.9057496832
2.08e-07,4.8432496896
2.0850000000000002e-07,4.8744996864
2.09e-07,4.93699968
2.0950000000000002e-07,4.93699968
2.1e-07,4.9057496832
2.105e-07,4.9057496832
2.1100000000000002e-07,4.8119996928
2.115e-07,4.8119996928
2.1200000000000002e-07,4.8119996928
2.125e-07,4.780749696
2.1300000000000001e-07,4.7182497024
2.1350000000000003e-07,4.6244997119999995
2.14e-07,4.5619997184
2.1450000000000002e-07,4.5619997184
2.15e-07,4.5307497216
2.1550000000000002e-07,4.5619997184
2.16e-07,4.4369997312
2.165e-07,4.311999744
2.1700000000000002e-07,4.2182497536
2.175e-07,4.1869997568
2.1800000000000002e-07,4.1244997632
2.185e-07,4.0619997696
2.1900000000000002e-07,3.9682497791999998
2.1950000000000003e-07,3.8119997952
2.2e-07,3.686999808
2.2050000000000002e-07,3.6557498111999998
2.21e-07,3.5619998207999997
2.2150000000000002e-07,3.4994998272
2.22e-07,3.37449984
2.2250000000000001e-07,3.2494998528
2.2300000000000002e-07,3.1869998592
2.235e-07,3.0932498688
2.2400000000000002e-07,2.9994998784
2.245e-07,2.905749888
2.2500000000000002e-07,2.7182499072
2.255e-07,2.6244999168
2.26e-07,2.5307499264
2.2650000000000002e-07,2.4682499328
2.27e-07,2.3432499456
2.2750000000000002e-07,2.1869999616
2.28e-07,2.0619999744
2.2850000000000001e-07,1.9994999808
2.2900000000000003e-07,1.9057499904000001
2.295e-07,1.7807500032
2.3000000000000002e-07,1.7182500096
2.305e-07,1.5932500224000001
2.3100000000000002e-07,1.499500032
2.315e-07,1.3745000448
2.32e-07,1.2807500544000001
2.3250000000000002e-07,1.2182500608
2.33e-07,1.1245000704
2.3350000000000002e-07,0.9995000832000001
2.34e-07,0.8745000960000001
2.3450000000000002e-07,0.8745000960000001
2.3500000000000003e-07,0.7807501056000001
2.355e-07,0.718250112
2.3600000000000002e-07,0.6245001216000001
2.365e-07,0.5307501312
2.3700000000000002e-07,0.43700014080000016
2.375e-07,0.4057501440000002
2.3800000000000001e-07,0.3745001472
2.385e-07,0.34325015040000006
2.39e-07,0.3120001536000001
2.395e-07,0.2182501632
2.4000000000000003e-07,0.1557501696000001
2.405e-07,0.09325017600000018
2.41e-07,0.09325017600000018
2.4150000000000004e-07,0.06200017920000023
2.42e-07,-0.0004998143999999094
2.425e-07,-0.0004998143999999094
2.43e-07,-0.0004998143999999094
2.4350000000000003e-07,-0.0004998143999999094
2.44e-07,-0.0004998143999999094
2.445e-07,-0.03174981119999987
2.4500000000000004e-07,-0.0004998143999999094
2.455e-07,-0.0004998143999999094
2.46e-07,-0.0004998143999999094
2.465e-07,-0.0004998143999999094
2.4700000000000003e-07,0.030750182400000048
2.475e-07,-0.0004998143999999094
2.48e-07,0.06200017920000023
2.4850000000000003e-07,0.12450017280000014
2.49e-07,0.18700016640000006
2.495e-07,0.2495001600000002
2.5000000000000004e-07,0.28075015680000015
2.505e-07,0.28075015680000015
2.51e-07,0.3120001536000001
2.515e-07,0.3745001472
2.5200000000000003e-07,0.4682501376000001
2.525e-07,0.562000128
2.53e-07,0.6557501184000001
2.5350000000000004e-07,0.718250112
2.54e-07,0.7807501056000001
2.545e-07,0.8432500992
2.55e-07,0.9682500864000001
2.5550000000000003e-07,1.0307500800000002
2.56e-07,1.1245000704
2.565e-07,1.2182500608
2.5700000000000004e-07,1.343250048
2.575e-07,1.4682500352
2.58e-07,1.5620000256000002
2.585e-07,1.6870000128
2.5900000000000003e-07,1.7807500032
2.595e-07,1.8744999936
2.6e-07,1.968249984
2.6050000000000004e-07,2.1244999680000003
2.61e-07,2.280749952
2.615e-07,2.4057499392
2.62e-07,2.4682499328
2.6250000000000003e-07,2.5307499264
2.63e-07,2.6557499136000002
2.635e-07,2.7807499008
2.6400000000000003e-07,2.9369998848
2.645e-07,3.0619998720000003
2.65e-07,3.218249856
2.6550000000000004e-07,3.2807498496000003
2.66e-07,3.3432498431999997
2.665e-07,3.4682498304
2.67e-07,3.5932498176000003
2.6750000000000003e-07,3.686999808
2.68e-07,3.7807497984
2.685e-07,3.8744997887999997
2.6900000000000004e-07,3.9994997760000004
2.695e-07,4.1244997632
2.7e-07,4.2182497536
2.705e-07,4.2182497536
2.7100000000000003e-07,4.2807497472
2.715e-07,4.3432497408
2.72e-07,4.4994997248
2.7250000000000004e-07,4.6557497088
2.73e-07,4.6869997056
2.735e-07,4.6869997056
2.74e-07,4.6869997056
2.7450000000000003e-07,4.7494996992
2.75e-07,4.8432496896
2.755e-07,4.9057496832
2.7600000000000004e-07,4.9994996736
2.765e-07,4.9994996736
2.77e-07,4.9994996736
2.7750000000000004e-07,5.0619996672
2.7800000000000003e-07,5.093249664
2.785e-07,5.0307496704
2.79e-07,5.093249664
2.7950000000000003e-07,5.0619996672
2.8e-07,5.093249664
2.805e-07,5.1557496576
2.8100000000000004e-07,5.1244996608
2.815e-07,5.0619996672
2.82e-07,4.9682496768
2.825e-07,4.9682496768
2.8300000000000003e-07,4.9994996736
2.835e-07,4.9994996736
2.84e-07,4.93699968
2.8450000000000004e-07,4.8744996864
2.85e-07,4.8119996928
2.855e-07,4.7494996992
2.86e-07,4.7182497024
2.8650000000000003e-07,4.6244997119999995
2.87e-07,4.6244997119999995
2.875e-07,4.5307497216
2.8800000000000004e-07,4.4369997312
2.885e-07,4.3432497408
2.89e-07,4.2807497472
2.895e-07,4.2182497536
2.9000000000000003e-07,4.0619997696
2.905e-07,3.9682497791999998
2.91e-07,3.9057497856000003
2.9150000000000004e-07,3.8119997952
2.92e-07,3.686999808
2.925e-07,3.6244998144
2.9300000000000004e-07,3.4994998272
2.9350000000000003e-07,3.37449984
2.94e-07,3.2494998528
2.945e-07,3.1557498624
2.9500000000000003e-07,3.0619998720000003
2.955e-07,2.9682498816000003
2.96e-07,2.8432498944
2.9650000000000004e-07,2.7182499072
2.97e-07,2.5619999232
2.975e-07,2.4682499328
2.98e-07,2.3432499456
2.9850000000000003e-07,2.2494999552
2.99e-07,2.1557499648
2.995e-07,2.0307499776
3.0000000000000004e-07,1.8744999936
3.005e-07,1.812
3.01e-07,1.6870000128
3.015e-07,1.5620000256000002
3.0200000000000003e-07,1.4370000384000001
3.025e-07,1.3120000512
3.03e-07,1.2807500544000001
3.0350000000000004e-07,1.187000064
3.04e-07,1.0620000768
3.045e-07,0.9682500864000001
3.0500000000000004e-07,0.8120001024000001
3.0550000000000003e-07,0.718250112
3.06e-07,0.6870001152
3.065e-07,0.5932501248000002
3.0700000000000004e-07,0.5307501312
3.075e-07,0.4682501376000001
3.08e-07,0.3745001472
3.0850000000000004e-07,0.3120001536000001
3.0900000000000003e-07,0.28075015680000015
3.095e-07,0.2182501632
3.1e-07,0.1557501696000001
3.1050000000000003e-07,0.09325017600000018
3.11e-07,0.06200017920000023
3.115e-07,0.030750182400000048
3.1200000000000004e-07,-0.03174981119999987
3.125e-07,-0.03174981119999987
3.13e-07,-0.09424980479999978
3.135e-07,-0.12549980159999996
3.1400000000000003e-07,-0.12549980159999996
3.145e-07,-0.09424980479999978
3.15e-07,-0.09424980479999978
3.1550000000000004e-07,-0.12549980159999996
3.16e-07,-0.12549980159999996
3.165e-07,-0.12549980159999996
3.1700000000000005e-07,-0.09424980479999978
3.1750000000000003e-07,-0.09424980479999978
3.18e-07,-0.09424980479999978
3.185e-07,-0.06299980799999982
3.1900000000000004e-07,-0.03174981119999987
3.195e-07,-0.0004998143999999094
3.2e-07,0.06200017920000023
3.2050000000000004e-07,0.09325017600000018
3.2100000000000003e-07,0.18700016640000006
3.215e-07,0.18700016640000006
3.22e-07,0.2495001600000002
3.2250000000000004e-07,0.3120001536000001
3.23e-07,0.4057501440000002
3.235e-07,0.4682501376000001
3.2400000000000004e-07,0.4995001344000001
3.2450000000000003e-07,0.562000128
3.25e-07,0.6557501184000001
3.255e-07,0.7495001088000002
3.2600000000000003e-07,0.9057500928000001
3.265e-07,0.9370000896000001
3.27e-07,1.0620000768
3.2750000000000004e-07,1.0932500736000001
3.28e-07,1.1557500672
3.285e-07,1.2807500544000001
3.29e-07,1.4370000384000001
3.2950000000000003e-07,1.5620000256000002
3.3e-07,1.655750016
3.305e-07,1.7495000064000001
